# Wavelength (nm)	Counts
# Exptime(ms): 20
214.2800	449.00
214.8243	449.00
215.3684	447.00
215.9125	449.00
216.4564	446.00
217.0002	450.00
217.5440	451.00
218.0876	449.00
218.6311	453.00
219.1745	455.00
219.7178	450.00
220.2609	450.00
220.8040	447.00
221.3470	448.00
221.8898	440.00
222.4326	440.00
222.9752	434.00
223.5177	430.00
224.0601	425.00
224.6024	429.00
225.1446	428.00
225.6867	431.00
226.2287	430.00
226.7706	432.00
227.3123	431.00
227.8540	434.00
228.3955	1151.00
228.9369	1729.00
229.4783	1972.00
230.0195	2093.00
230.5606	2137.00
231.1016	2160.00
231.6425	2164.00
232.1833	2167.00
232.7239	2169.00
233.2645	2163.00
233.8049	2155.00
234.3453	2156.00
234.8855	2153.00
235.4256	2155.00
235.9656	2148.00
236.5056	2155.00
237.0453	2167.00
237.5850	2167.00
238.1246	2168.00
238.6641	2169.00
239.2034	2156.00
239.7427	2162.00
240.2818	2150.00
240.8209	2136.00
241.3598	2128.00
241.8986	2139.00
242.4373	2129.00
242.9759	2133.00
243.5144	2131.00
244.0528	2133.00
244.5911	2140.00
245.1292	2151.00
245.6673	2151.00
246.2052	2143.00
246.7430	2151.00
247.2808	2147.00
247.8184	2134.00
248.3559	2145.00
248.8933	2147.00
249.4306	2139.00
249.9678	2133.00
250.5048	2138.00
251.0418	2137.00
251.5786	2133.00
252.1154	2136.00
252.6520	2157.00
253.1885	2154.00
253.7250	2157.00
254.2613	2152.00
254.7975	2168.00
255.3336	2164.00
255.8695	2176.00
256.4054	2177.00
256.9412	2178.00
257.4768	2167.00
258.0124	2173.00
258.5478	2165.00
259.0831	2162.00
259.6183	2149.00
260.1534	2157.00
260.6884	2163.00
261.2233	2160.00
261.7581	2159.00
262.2928	2171.00
262.8274	2175.00
263.3618	2165.00
263.8962	2155.00
264.4304	2142.00
264.9645	2138.00
265.4985	2154.00
266.0324	2145.00
266.5662	2133.00
267.0999	2134.00
267.6335	2137.00
268.1670	2123.00
268.7003	2114.00
269.2336	2121.00
269.7667	2135.00
270.2998	2132.00
270.8327	2146.00
271.3655	2155.00
271.8982	2160.00
272.4308	2162.00
272.9633	2170.00
273.4957	2154.00
274.0280	2158.00
274.5601	2149.00
275.0922	2155.00
275.6241	2145.00
276.1560	2132.00
276.6877	2132.00
277.2193	2130.00
277.7508	2133.00
278.2822	2136.00
278.8135	2128.00
279.3447	2130.00
279.8758	2142.00
280.4067	2151.00
280.9376	2152.00
281.4683	2141.00
281.9990	2157.00
282.5295	2168.00
283.0599	2163.00
283.5902	2154.00
284.1204	2157.00
284.6505	2164.00
285.1805	2148.00
285.7104	2144.00
286.2401	2145.00
286.7698	2147.00
287.2994	2143.00
287.8288	2143.00
288.3581	2134.00
288.8873	2156.00
289.4164	2165.00
289.9454	2166.00
290.4743	2173.00
291.0031	2175.00
291.5318	2170.00
292.0604	2155.00
292.5888	2152.00
293.1172	2148.00
293.6454	2150.00
294.1735	2163.00
294.7016	2154.00
295.2295	2170.00
295.7573	2167.00
296.2850	2170.00
296.8125	2172.00
297.3400	2182.00
297.8674	2175.00
298.3946	2179.00
298.9218	2182.00
299.4488	2179.00
299.9758	2172.00
300.5026	2171.00
301.0293	2172.00
301.5559	2171.00
302.0824	2154.00
302.6088	2165.00
303.1350	2166.00
303.6612	2165.00
304.1873	2161.00
304.7132	2175.00
305.2390	2184.00
305.7648	2201.00
306.2904	2198.00
306.8159	2204.00
307.3413	2174.00
307.8666	2163.00
308.3918	2163.00
308.9169	2162.00
309.4418	2173.00
309.9667	2182.00
310.4914	2178.00
311.0161	2184.00
311.5406	2187.00
312.0650	2177.00
312.5893	2182.00
313.1135	2182.00
313.6376	2172.00
314.1616	2177.00
314.6855	2170.00
315.2093	2176.00
315.7329	2183.00
316.2565	2174.00
316.7799	2155.00
317.3032	2157.00
317.8265	2154.00
318.3496	2163.00
318.8726	2163.00
319.3955	2166.00
319.9183	2155.00
320.4409	2161.00
320.9635	2158.00
321.4860	2153.00
322.0083	2182.00
322.5306	2188.00
323.0527	2172.00
323.5747	2174.00
324.0966	2168.00
324.6184	2159.00
325.1401	2160.00
325.6617	2168.00
326.1832	2152.00
326.7046	2166.00
327.2258	2172.00
327.7470	2169.00
328.2680	2182.00
328.7889	2186.00
329.3098	2182.00
329.8305	2171.00
330.3511	2149.00
330.8716	2151.00
331.3920	2154.00
331.9122	2151.00
332.4324	2152.00
332.9525	2154.00
333.4724	2152.00
333.9923	2166.00
334.5120	2159.00
335.0316	2161.00
335.5511	2166.00
336.0705	2167.00
336.5898	2165.00
337.1090	2165.00
337.6281	2153.00
338.1471	2152.00
338.6659	2159.00
339.1847	2165.00
339.7033	2168.00
340.2219	2175.00
340.7403	2186.00
341.2586	2184.00
341.7768	2194.00
342.2949	2196.00
342.8129	2189.00
343.3308	2189.00
343.8485	2181.00
344.3662	2189.00
344.8837	2174.00
345.4012	2179.00
345.9185	2189.00
346.4357	2191.00
346.9529	2177.00
347.4699	2178.00
347.9868	2166.00
348.5035	2162.00
349.0202	2157.00
349.5368	2168.00
350.0533	2171.00
350.5696	2175.00
351.0859	2183.00
351.6020	2176.00
352.1180	2175.00
352.6339	2182.00
353.1497	2188.00
353.6654	2185.00
354.1810	2168.00
354.6965	2165.00
355.2119	2182.00
355.7271	2188.00
356.2423	2172.00
356.7573	2158.00
357.2723	2146.00
357.7871	2147.00
358.3018	2156.00
358.8164	2159.00
359.3309	2163.00
359.8453	2171.00
360.3596	2183.00
360.8738	2184.00
361.3878	2176.00
361.9018	2170.00
362.4156	2171.00
362.9293	2176.00
363.4430	2170.00
363.9565	2174.00
364.4699	2181.00
364.9832	2176.00
365.4964	2184.00
366.0095	2178.00
366.5224	2166.00
367.0353	2159.00
367.5481	2156.00
368.0607	2169.00
368.5732	2164.00
369.0857	2163.00
369.5980	2167.00
370.1102	2162.00
370.6223	2156.00
371.1343	2158.00
371.6462	2167.00
372.1579	2177.00
372.6696	2174.00
373.1811	2184.00
373.6926	2162.00
374.2039	2162.00
374.7152	2159.00
375.2263	2165.00
375.7373	2160.00
376.2482	2158.00
376.7590	2169.00
377.2697	2175.00
377.7802	2159.00
378.2907	2157.00
378.8010	2156.00
379.3113	2179.00
379.8214	2170.00
380.3315	2165.00
380.8414	2161.00
381.3512	2168.00
381.8609	2175.00
382.3705	2170.00
382.8800	2161.00
383.3893	2174.00
383.8986	2167.00
384.4077	2159.00
384.9168	2170.00
385.4257	2183.00
385.9346	2165.00
386.4433	2165.00
386.9519	2172.00
387.4604	2178.00
387.9688	2178.00
388.4771	2188.00
388.9852	2183.00
389.4933	2174.00
390.0013	2171.00
390.5091	2170.00
391.0168	2176.00
391.5245	2175.00
392.0320	2177.00
392.5394	2170.00
393.0467	2173.00
393.5539	2171.00
394.0610	2153.00
394.5679	2158.00
395.0748	2151.00
395.5816	2160.00
396.0882	2150.00
396.5948	2167.00
397.1012	2165.00
397.6075	2176.00
398.1137	2159.00
398.6198	2165.00
399.1258	2161.00
399.6317	2171.00
400.1375	2172.00
400.6431	2185.00
401.1487	2184.00
401.6541	2192.00
402.1595	2183.00
402.6647	2174.00
403.1698	2179.00
403.6748	2162.00
404.1797	2168.00
404.6845	2164.00
405.1892	2164.00
405.6938	2177.00
406.1983	2179.00
406.7026	2189.00
407.2069	2190.00
407.7110	2199.00
408.2150	2174.00
408.7189	2183.00
409.2228	2175.00
409.7265	2170.00
410.2301	2167.00
410.7335	2184.00
411.2369	2191.00
411.7402	2175.00
412.2433	2176.00
412.7464	2176.00
413.2493	2166.00
413.7522	2177.00
414.2549	2187.00
414.7575	2189.00
415.2600	2178.00
415.7624	2186.00
416.2647	2173.00
416.7669	2178.00
417.2689	2180.00
417.7709	2168.00
418.2727	2165.00
418.7745	2184.00
419.2761	2178.00
419.7776	2185.00
420.2790	2198.00
420.7803	2197.00
421.2815	2195.00
421.7826	2201.00
422.2836	2198.00
422.7845	2185.00
423.2852	2186.00
423.7859	2185.00
424.2864	2172.00
424.7868	2170.00
425.2872	2165.00
425.7874	2170.00
426.2875	2155.00
426.7875	2164.00
427.2874	2163.00
427.7871	2180.00
428.2868	2169.00
428.7864	2172.00
429.2858	2166.00
429.7852	2163.00
430.2844	2176.00
430.7835	2176.00
431.2825	2172.00
431.7814	2193.00
432.2802	2193.00
432.7789	2195.00
433.2775	2186.00
433.7760	2192.00
434.2743	2182.00
434.7726	2179.00
435.2707	2186.00
435.7687	2198.00
436.2667	2197.00
436.7645	2208.00
437.2622	2201.00
437.7598	2201.00
438.2573	2187.00
438.7546	2180.00
439.2519	2178.00
439.7491	2191.00
440.2461	2194.00
440.7431	2200.00
441.2399	2207.00
441.7366	2184.00
442.2332	2185.00
442.7297	2189.00
443.2261	2180.00
443.7224	2187.00
444.2186	2186.00
444.7147	2194.00
445.2106	2196.00
445.7065	2207.00
446.2022	2196.00
446.6979	2198.00
447.1934	2189.00
447.6888	2185.00
448.1841	2182.00
448.6793	2179.00
449.1744	2177.00
449.6694	2183.00
450.1643	2197.00
450.6590	2194.00
451.1537	2194.00
451.6482	2209.00
452.1426	2212.00
452.6370	2211.00
453.1312	2192.00
453.6253	2199.00
454.1193	2204.00
454.6132	2206.00
455.1070	2208.00
455.6006	2193.00
456.0942	2197.00
456.5876	2201.00
457.0810	2199.00
457.5742	2189.00
458.0673	2180.00
458.5604	2180.00
459.0533	2188.00
459.5461	2210.00
460.0388	2213.00
460.5313	2209.00
461.0238	2204.00
461.5162	2206.00
462.0084	2189.00
462.5006	2202.00
462.9926	2217.00
463.4845	2229.00
463.9763	2227.00
464.4681	2220.00
464.9596	2211.00
465.4511	2207.00
465.9425	2221.00
466.4338	2220.00
466.9250	2220.00
467.4160	2228.00
467.9070	2222.00
468.3978	2230.00
468.8885	2210.00
469.3791	2206.00
469.8696	2207.00
470.3600	2199.00
470.8503	2192.00
471.3405	2199.00
471.8306	2211.00
472.3205	2211.00
472.8104	2208.00
473.3001	2224.00
473.7898	2217.00
474.2793	2211.00
474.7687	2205.00
475.2580	2214.00
475.7472	2210.00
476.2363	2214.00
476.7253	2213.00
477.2142	2203.00
477.7029	2196.00
478.1916	2195.00
478.6801	2189.00
479.1686	2192.00
479.6569	2194.00
480.1451	2193.00
480.6332	2203.00
481.1212	2211.00
481.6091	2213.00
482.0969	2206.00
482.5846	2197.00
483.0721	2200.00
483.5596	2220.00
484.0469	2222.00
484.5342	2195.00
485.0213	2196.00
485.5083	2205.00
485.9952	2201.00
486.4820	2205.00
486.9687	2215.00
487.4553	2209.00
487.9418	2201.00
488.4282	2192.00
488.9144	2199.00
489.4006	2206.00
489.8866	2212.00
490.3725	2202.00
490.8583	2215.00
491.3441	2229.00
491.8297	2231.00
492.3151	2213.00
492.8005	2218.00
493.2858	2202.00
493.7710	2189.00
494.2560	2196.00
494.7410	2202.00
495.2258	2195.00
495.7105	2206.00
496.1952	2199.00
496.6797	2206.00
497.1641	2215.00
497.6484	2197.00
498.1325	2193.00
498.6166	2193.00
499.1006	2205.00
499.5844	2199.00
500.0682	2191.00
500.5518	2202.00
501.0354	2213.00
501.5188	2207.00
502.0021	2216.00
502.4853	2203.00
502.9684	2192.00
503.4514	2195.00
503.9342	2194.00
504.4170	2190.00
504.8997	2188.00
505.3822	2191.00
505.8647	2196.00
506.3470	2208.00
506.8292	2209.00
507.3113	2226.00
507.7933	2228.00
508.2752	2213.00
508.7570	2192.00
509.2387	2200.00
509.7202	2194.00
510.2017	2202.00
510.6831	2195.00
511.1643	2208.00
511.6454	2216.00
512.1264	2216.00
512.6074	2215.00
513.0882	2229.00
513.5689	2226.00
514.0494	2222.00
514.5299	2221.00
515.0103	2208.00
515.4905	2203.00
515.9707	2212.00
516.4507	2203.00
516.9307	2201.00
517.4105	2206.00
517.8902	2202.00
518.3698	2200.00
518.8493	2204.00
519.3287	2201.00
519.8080	2191.00
520.2871	2185.00
520.7662	2189.00
521.2451	2201.00
521.7240	2219.00
522.2027	2207.00
522.6813	2210.00
523.1598	2206.00
523.6382	2222.00
524.1165	2198.00
524.5947	2206.00
525.0728	2207.00
525.5508	2217.00
526.0286	2230.00
526.5064	2225.00
526.9840	2219.00
527.4616	2209.00
527.9390	2207.00
528.4163	2207.00
528.8935	2202.00
529.3706	2202.00
529.8476	2214.00
530.3245	2206.00
530.8012	2212.00
531.2779	2216.00
531.7544	2214.00
532.2309	2216.00
532.7072	2214.00
533.1834	2235.00
533.6595	2224.00
534.1355	2238.00
534.6114	2230.00
535.0872	2227.00
535.5629	2236.00
536.0385	2223.00
536.5139	2219.00
536.9893	2212.00
537.4645	2209.00
537.9397	2207.00
538.4147	2204.00
538.8896	2211.00
539.3644	2211.00
539.8391	2219.00
540.3137	2230.00
540.7882	2220.00
541.2625	2207.00
541.7368	2217.00
542.2110	2204.00
542.6850	2202.00
543.1589	2209.00
543.6328	2213.00
544.1065	2219.00
544.5801	2223.00
545.0536	2224.00
545.5270	2225.00
546.0002	2215.00
546.4734	2212.00
546.9465	2214.00
547.4194	2212.00
547.8923	2226.00
548.3650	2237.00
548.8376	2227.00
549.3101	2220.00
549.7826	2202.00
550.2548	2204.00
550.7270	2202.00
551.1991	2200.00
551.6711	2212.00
552.1430	2209.00
552.6147	2196.00
553.0863	2206.00
553.5579	2205.00
554.0293	2200.00
554.5006	2207.00
554.9718	2218.00
555.4429	2209.00
555.9139	2202.00
556.3848	2206.00
556.8556	2220.00
557.3262	2208.00
557.7968	2214.00
558.2672	2217.00
558.7376	2225.00
559.2078	2218.00
559.6779	2198.00
560.1479	2206.00
560.6178	2210.00
561.0876	2201.00
561.5573	2206.00
562.0269	2215.00
562.4963	2219.00
562.9657	2203.00
563.4349	2203.00
563.9041	2207.00
564.3731	2207.00
564.8420	2205.00
565.3108	2219.00
565.7795	2214.00
566.2481	2211.00
566.7166	2209.00
567.1849	2223.00
567.6532	2221.00
568.1214	2208.00
568.5894	2202.00
569.0573	2205.00
569.5252	2206.00
569.9929	2201.00
570.4605	2196.00
570.9280	2209.00
571.3954	2213.00
571.8627	2220.00
572.3298	2211.00
572.7969	2220.00
573.2639	2226.00
573.7307	2224.00
574.1974	2213.00
574.6641	2201.00
575.1306	2209.00
575.5970	2212.00
576.0633	2209.00
576.5295	2200.00
576.9956	2191.00
577.4615	2198.00
577.9274	2192.00
578.3932	2188.00
578.8588	2184.00
579.3244	2194.00
579.7898	2200.00
580.2551	2200.00
580.7203	2198.00
581.1854	2197.00
581.6504	2194.00
582.1153	2195.00
582.5801	2197.00
583.0447	2193.00
583.5093	2191.00
583.9737	2195.00
584.4381	2194.00
584.9023	2182.00
585.3664	2195.00
585.8304	2185.00
586.2943	2171.00
586.7581	2177.00
587.2218	2186.00
587.6854	2177.00
588.1488	2166.00
588.6122	2181.00
589.0754	2193.00
589.5386	2191.00
590.0016	2203.00
590.4645	2222.00
590.9273	2215.00
591.3900	2204.00
591.8526	2190.00
592.3151	2183.00
592.7775	2193.00
593.2398	2201.00
593.7019	2206.00
594.1640	2211.00
594.6259	2212.00
595.0877	2201.00
595.5494	2192.00
596.0111	2183.00
596.4726	2180.00
596.9340	2193.00
597.3952	2193.00
597.8564	2199.00
598.3175	2198.00
598.7784	2199.00
599.2393	2189.00
599.7000	2192.00
600.1607	2192.00
600.6212	2197.00
601.0816	2198.00
601.5419	2196.00
602.0021	2200.00
602.4622	2187.00
602.9221	2189.00
603.3820	2204.00
603.8418	2194.00
604.3014	2187.00
604.7610	2195.00
605.2204	2201.00
605.6797	2193.00
606.1389	2190.00
606.5980	2201.00
607.0570	2201.00
607.5159	2193.00
607.9747	2187.00
608.4333	2173.00
608.8919	2180.00
609.3504	2190.00
609.8087	2201.00
610.2669	2188.00
610.7250	2189.00
611.1831	2188.00
611.6410	2208.00
612.0988	2220.00
612.5564	2219.00
613.0140	2214.00
613.4715	2223.00
613.9288	2224.00
614.3861	2223.00
614.8432	2215.00
615.3003	2209.00
615.7572	2210.00
616.2140	2206.00
616.6707	2205.00
617.1273	2212.00
617.5838	2208.00
618.0402	2206.00
618.4964	2192.00
618.9526	2200.00
619.4086	2207.00
619.8646	2204.00
620.3204	2193.00
620.7761	2188.00
621.2318	2180.00
621.6873	2193.00
622.1427	2201.00
622.5979	2191.00
623.0531	2181.00
623.5082	2185.00
623.9632	2200.00
624.4180	2206.00
624.8727	2199.00
625.3274	2209.00
625.7819	2212.00
626.2363	2213.00
626.6906	2197.00
627.1448	2202.00
627.5989	2209.00
628.0529	2213.00
628.5068	2219.00
628.9605	2217.00
629.4142	2215.00
629.8677	2218.00
630.3211	2223.00
630.7745	2214.00
631.2277	2204.00
631.6808	2199.00
632.1338	2197.00
632.5867	2214.00
633.0394	2223.00
633.4921	2215.00
633.9447	2228.00
634.3971	2224.00
634.8495	2218.00
635.3017	2220.00
635.7538	2224.00
636.2058	2217.00
636.6578	2211.00
637.1095	2197.00
637.5612	2195.00
638.0128	2198.00
638.4643	2203.00
638.9156	2203.00
639.3669	2208.00
639.8180	2211.00
640.2691	2210.00
640.7200	2210.00
641.1708	2207.00
641.6215	2212.00
642.0721	2204.00
642.5226	2205.00
642.9730	2196.00
643.4233	2181.00
643.8734	2175.00
644.3235	2189.00
644.7734	2186.00
645.2233	2179.00
645.6730	2185.00
646.1226	2201.00
646.5721	2197.00
647.0215	2196.00
647.4708	2197.00
647.9200	2187.00
648.3690	2193.00
648.8180	2193.00
649.2669	2196.00
649.7156	2197.00
650.1642	2193.00
650.6128	2192.00
651.0612	2194.00
651.5095	2192.00
651.9577	2198.00
652.4058	2197.00
652.8538	2204.00
653.3016	2204.00
653.7494	2190.00
654.1970	2189.00
654.6446	2180.00
655.0920	2190.00
655.5394	2174.00
655.9866	2190.00
656.4337	2189.00
656.8807	2184.00
657.3276	2178.00
657.7743	2182.00
658.2210	2187.00
658.6676	2189.00
659.1140	2180.00
659.5604	2180.00
660.0066	2186.00
660.4527	2201.00
660.8988	2197.00
661.3447	2190.00
661.7905	2177.00
662.2362	2174.00
662.6817	2189.00
663.1272	2206.00
663.5726	2201.00
664.0178	2201.00
664.4630	2198.00
664.9080	2190.00
665.3529	2166.00
665.7978	2182.00
666.2425	2187.00
666.6871	2191.00
667.1316	2189.00
667.5759	2189.00
668.0202	2185.00
668.4644	2191.00
668.9084	2186.00
669.3524	2193.00
669.7962	2184.00
670.2400	2181.00
670.6836	2183.00
671.1271	2180.00
671.5705	2178.00
672.0138	2182.00
672.4570	2189.00
672.9000	2199.00
673.3430	2192.00
673.7859	2198.00
674.2286	2203.00
674.6712	2192.00
675.1138	2195.00
675.5562	2201.00
675.9985	2197.00
676.4407	2188.00
676.8828	2192.00
677.3248	2191.00
677.7666	2180.00
678.2084	2197.00
678.6501	2194.00
679.0916	2181.00
679.5331	2183.00
679.9744	2192.00
680.4156	2190.00
680.8567	2202.00
681.2977	2197.00
681.7386	2185.00
682.1794	2184.00
682.6201	2177.00
683.0606	2189.00
683.5011	2209.00
683.9414	2202.00
684.3817	2210.00
684.8218	2200.00
685.2618	2197.00
685.7017	2188.00
686.1415	2186.00
686.5812	2186.00
687.0208	2178.00
687.4603	2177.00
687.8997	2189.00
688.3389	2188.00
688.7781	2192.00
689.2171	2188.00
689.6560	2182.00
690.0949	2177.00
690.5336	2186.00
690.9722	2189.00
691.4107	2184.00
691.8490	2179.00
692.2873	2189.00
692.7255	2188.00
693.1635	2196.00
693.6015	2191.00
694.0393	2184.00
694.4771	2172.00
694.9147	2184.00
695.3522	2201.00
695.7896	2208.00
696.2269	2192.00
696.6641	2194.00
697.1012	2202.00
697.5381	2205.00
697.9750	2196.00
698.4117	2194.00
698.8484	2189.00
699.2849	2186.00
699.7213	2183.00
700.1576	2178.00
700.5938	2186.00
701.0299	2195.00
701.4659	2201.00
701.9018	2196.00
702.3376	2187.00
702.7732	2199.00
703.2088	2195.00
703.6442	2202.00
704.0796	2202.00
704.5148	2202.00
704.9499	2201.00
705.3849	2197.00
705.8198	2187.00
706.2546	2198.00
706.6892	2203.00
707.1238	2201.00
707.5583	2215.00
707.9926	2224.00
708.4269	2228.00
708.8610	2210.00
709.2950	2210.00
709.7289	2216.00
710.1627	2200.00
710.5964	2196.00
711.0300	2195.00
711.4635	2202.00
711.8969	2190.00
712.3301	2185.00
712.7633	2179.00
713.1963	2187.00
713.6293	2188.00
714.0621	2197.00
714.4948	2199.00
714.9274	2199.00
715.3599	2205.00
715.7923	2206.00
716.2246	2202.00
716.6567	2205.00
717.0888	2213.00
717.5207	2214.00
717.9526	2200.00
718.3843	2206.00
718.8159	2206.00
719.2475	2208.00
719.6789	2207.00
720.1102	2211.00
720.5413	2197.00
720.9724	2193.00
721.4034	2184.00
721.8343	2205.00
722.2650	2204.00
722.6957	2220.00
723.1262	2209.00
723.5566	2204.00
723.9869	2198.00
724.4171	2195.00
724.8472	2190.00
725.2772	2192.00
725.7071	2187.00
726.1369	2176.00
726.5665	2165.00
726.9961	2195.00
727.4255	2200.00
727.8549	2198.00
728.2841	2200.00
728.7132	2193.00
729.1422	2191.00
729.5711	2196.00
729.9999	2191.00
730.4286	2194.00
730.8571	2189.00
731.2856	2204.00
731.7140	2206.00
732.1422	2202.00
732.5703	2194.00
732.9984	2204.00
733.4263	2198.00
733.8541	2205.00
734.2818	2206.00
734.7094	2213.00
735.1369	2212.00
735.5642	2216.00
735.9915	2201.00
736.4186	2204.00
736.8457	2203.00
737.2726	2208.00
737.6994	2207.00
738.1262	2210.00
738.5528	2208.00
738.9793	2202.00
739.4057	2198.00
739.8319	2215.00
740.2581	2207.00
740.6842	2213.00
741.1101	2210.00
741.5360	2200.00
741.9617	2205.00
742.3873	2229.00
742.8129	2238.00
743.2383	2223.00
743.6636	2213.00
744.0888	2221.00
744.5138	2222.00
744.9388	2218.00
745.3637	2214.00
745.7884	2209.00
746.2131	2209.00
746.6376	2201.00
747.0620	2195.00
747.4863	2213.00
747.9106	2220.00
748.3347	2214.00
748.7586	2206.00
749.1825	2199.00
749.6063	2193.00
750.0300	2191.00
750.4535	2199.00
750.8770	2210.00
751.3003	2208.00
751.7235	2222.00
752.1466	2222.00
752.5697	2231.00
752.9926	2228.00
753.4154	2232.00
753.8380	2230.00
754.2606	2228.00
754.6831	2223.00
755.1054	2213.00
755.5277	2203.00
755.9498	2216.00
756.3718	2223.00
756.7938	2223.00
757.2156	2216.00
757.6373	2215.00
758.0589	2219.00
758.4803	2229.00
758.9017	2230.00
759.3230	2213.00
759.7441	2218.00
760.1652	2221.00
760.5861	2219.00
761.0069	2229.00
761.4277	2215.00
761.8483	2206.00
762.2688	2220.00
762.6892	2231.00
763.1095	2234.00
763.5296	2241.00
763.9497	2247.00
764.3697	2229.00
764.7895	2228.00
765.2092	2223.00
765.6289	2210.00
766.0484	2215.00
766.4678	2216.00
766.8871	2215.00
767.3063	2223.00
767.7254	2214.00
768.1444	2210.00
768.5632	2211.00
768.9820	2222.00
769.4006	2221.00
769.8192	2208.00
770.2376	2199.00
770.6559	2210.00
771.0741	2206.00
771.4922	2204.00
771.9102	2212.00
772.3281	2211.00
772.7459	2206.00
773.1635	2220.00
773.5811	2235.00
773.9985	2232.00
774.4159	2232.00
774.8331	2220.00
775.2502	2216.00
775.6673	2211.00
776.0842	2214.00
776.5009	2215.00
776.9176	2204.00
777.3342	2194.00
777.7507	2193.00
778.1670	2195.00
778.5833	2208.00
778.9994	2210.00
779.4155	2214.00
779.8314	2212.00
780.2472	2212.00
780.6629	2214.00
781.0785	2209.00
781.4940	2196.00
781.9093	2214.00
782.3246	2215.00
782.7398	2213.00
783.1548	2212.00
783.5698	2227.00
783.9846	2225.00
784.3993	2217.00
784.8139	2209.00
785.2284	2219.00
785.6428	2219.00
786.0571	2215.00
786.4713	2230.00
786.8854	2236.00
787.2993	2234.00
787.7132	2229.00
788.1269	2216.00
788.5405	2214.00
788.9541	2212.00
789.3675	2221.00
789.7808	2228.00
790.1940	2222.00
790.6071	2206.00
791.0200	2217.00
791.4329	2211.00
791.8457	2199.00
792.2583	2195.00
792.6709	2200.00
793.0833	2202.00
793.4956	2207.00
793.9078	2205.00
794.3199	2209.00
794.7319	2216.00
795.1438	2219.00
795.5556	2212.00
795.9673	2215.00
796.3788	2214.00
796.7903	2203.00
797.2016	2212.00
797.6128	2214.00
798.0240	2217.00
798.4350	2215.00
798.8459	2206.00
799.2567	2217.00
799.6674	2209.00
800.0780	2204.00
800.4884	2199.00
800.8988	2210.00
801.3090	2205.00
801.7192	2217.00
802.1292	2219.00
802.5391	2230.00
802.9489	2228.00
803.3587	2233.00
803.7682	2231.00
804.1777	2226.00
804.5871	2221.00
804.9964	2222.00
805.4055	2219.00
805.8146	2214.00
806.2235	2212.00
806.6324	2207.00
807.0411	2205.00
807.4497	2209.00
807.8582	2207.00
808.2666	2199.00
808.6749	2210.00
809.0831	2214.00
809.4912	2214.00
809.8991	2221.00
810.3070	2213.00
810.7147	2225.00
811.1223	2211.00
811.5299	2214.00
811.9373	2210.00
812.3446	2215.00
812.7518	2218.00
813.1589	2209.00
813.5659	2219.00
813.9727	2221.00
814.3795	2215.00
814.7861	2204.00
815.1927	2208.00
815.5991	2223.00
816.0055	2219.00
816.4117	2225.00
816.8178	2216.00
817.2238	2206.00
817.6297	2204.00
818.0354	2207.00
818.4411	2205.00
818.8467	2207.00
819.2521	2209.00
819.6575	2213.00
820.0627	2214.00
820.4678	2219.00
820.8729	2214.00
821.2778	2207.00
821.6826	2208.00
822.0872	2215.00
822.4918	2234.00
822.8963	2237.00
823.3007	2238.00
823.7049	2231.00
824.1091	2230.00
824.5131	2226.00
824.9170	2221.00
825.3208	2224.00
825.7246	2234.00
826.1282	2232.00
826.5316	2221.00
826.9350	2209.00
827.3383	2206.00
827.7415	2208.00
828.1445	2218.00
828.5475	2227.00
828.9503	2224.00
829.3530	2234.00
829.7556	2228.00
830.1581	2218.00
830.5605	2220.00
830.9628	2227.00
831.3650	2225.00
831.7671	2238.00
832.1691	2243.00
832.5709	2225.00
832.9727	2223.00
833.3743	2222.00
833.7758	2213.00
834.1772	2217.00
834.5786	2221.00
834.9798	2220.00
835.3808	2219.00
835.7818	2229.00
836.1827	2227.00
836.5835	2225.00
836.9841	2215.00
837.3847	2234.00
837.7851	2235.00
838.1854	2232.00
838.5856	2223.00
838.9858	2233.00
839.3858	2231.00
839.7857	2223.00
840.1854	2212.00
840.5851	2207.00
840.9847	2213.00
841.3841	2220.00
841.7835	2216.00
842.1827	2225.00
842.5818	2211.00
842.9809	2213.00
843.3798	2223.00
843.7786	2238.00
844.1773	2245.00
844.5759	2250.00
844.9743	2233.00
845.3727	2227.00
845.7709	2238.00
846.1691	2245.00
846.5671	2236.00
846.9651	2230.00
847.3629	2239.00
847.7606	2242.00
848.1582	2226.00
848.5557	2218.00
848.9531	2212.00
849.3503	2200.00
849.7475	2195.00
850.1446	2200.00
850.5415	2211.00
850.9384	2212.00
851.3351	2215.00
851.7317	2214.00
852.1282	2228.00
852.5246	2242.00
852.9209	2246.00
853.3171	2241.00
853.7132	2232.00
854.1091	2225.00
854.5050	2216.00
854.9007	2210.00
855.2964	2214.00
855.6919	2222.00
856.0873	2216.00
856.4826	2201.00
856.8778	2210.00
857.2729	2212.00
857.6679	2212.00
858.0628	2215.00
858.4576	2211.00
858.8522	2213.00
859.2468	2227.00
859.6412	2249.00
860.0355	2233.00
860.4298	2222.00
860.8239	2209.00
861.2179	2215.00
861.6118	2207.00
862.0056	2204.00
862.3992	2211.00
862.7928	2213.00
863.1863	2216.00
863.5796	2215.00
863.9729	2227.00
864.3660	2226.00
864.7590	2224.00
865.1519	2236.00
865.5447	2232.00
865.9374	2236.00
866.3300	2244.00
866.7225	2244.00
867.1149	2240.00
867.5071	2241.00
867.8993	2243.00
868.2913	2240.00
868.6832	2247.00
869.0751	2240.00
869.4668	2238.00
869.8584	2250.00
870.2499	2251.00
870.6413	2245.00
871.0325	2228.00
871.4237	2216.00
871.8148	2217.00
872.2057	2223.00
872.5966	2223.00
872.9873	2230.00
873.3779	2231.00
873.7684	2227.00
874.1588	2233.00
874.5491	2225.00
874.9393	2235.00
875.3294	2227.00
875.7194	2225.00
876.1092	2223.00
876.4990	2229.00
876.8886	2242.00
877.2781	2255.00
877.6676	2262.00
878.0569	2271.00
878.4461	2264.00
878.8352	2249.00
879.2242	2240.00
879.6130	2236.00
880.0018	2238.00
880.3905	2239.00
880.7790	2241.00
881.1675	2242.00
881.5558	2252.00
881.9440	2248.00
882.3321	2238.00
882.7201	2235.00
883.1080	2245.00
883.4958	2238.00
883.8835	2241.00
884.2711	2260.00
884.6585	2267.00
885.0459	2266.00
885.4331	2255.00
885.8203	2248.00
886.2073	2243.00
886.5942	2247.00
886.9810	2260.00
887.3677	2247.00
887.7543	2261.00
888.1408	2255.00
888.5272	2260.00
888.9134	2260.00
889.2996	2263.00
889.6856	2258.00
890.0715	2269.00
890.4574	2269.00
890.8431	2262.00
891.2287	2249.00
891.6142	2251.00
891.9996	2250.00
892.3849	2249.00
892.7700	2254.00
893.1551	2259.00
893.5400	2262.00
893.9249	2260.00
894.3096	2260.00
894.6943	2265.00
895.0788	2254.00
895.4632	2248.00
895.8475	2228.00
896.2317	2231.00
896.6157	2235.00
896.9997	2234.00
897.3836	2240.00
897.7673	2251.00
898.1510	2253.00
898.5345	2264.00
898.9179	2248.00
899.3013	2242.00
899.6845	2243.00
900.0676	2254.00
900.4506	2260.00
900.8334	2249.00
901.2162	2248.00
901.5989	2246.00
901.9814	2247.00
902.3639	2256.00
902.7462	2257.00
903.1284	2269.00
903.5105	2260.00
903.8926	2255.00
904.2745	2254.00
904.6562	2257.00
905.0379	2261.00
905.4195	2270.00
905.8010	2264.00
906.1823	2252.00
906.5636	2248.00
906.9447	2248.00
907.3257	2236.00
907.7066	2230.00
908.0874	2238.00
908.4682	2238.00
908.8487	2241.00
909.2292	2255.00
909.6096	2261.00
909.9899	2269.00
910.3700	2269.00
910.7501	2273.00
911.1300	2271.00
911.5098	2266.00
911.8895	2245.00
912.2692	2247.00
912.6487	2253.00
913.0280	2247.00
913.4073	2251.00
913.7865	2250.00
914.1656	2241.00
914.5445	2249.00
914.9234	2250.00
915.3021	2236.00
915.6807	2237.00
916.0593	2233.00
916.4377	2241.00
916.8160	2249.00
917.1942	2251.00
917.5722	2246.00
917.9502	2257.00
918.3281	2259.00
918.7058	2252.00
919.0835	2245.00
919.4610	2254.00
919.8384	2264.00
920.2158	2266.00
920.5930	2255.00
920.9701	2242.00
921.3471	2246.00
921.7240	2227.00
922.1007	2241.00
922.4774	2263.00
922.8539	2260.00
923.2304	2255.00
923.6067	2250.00
923.9830	2244.00
924.3591	2240.00
924.7351	2219.00
925.1110	2220.00
925.4868	2226.00
925.8625	2235.00
926.2380	2243.00
926.6135	2255.00
926.9889	2248.00
927.3641	2254.00
927.7393	2251.00
928.1143	2250.00
928.4892	2240.00
928.8640	2232.00
929.2387	2239.00
929.6133	2249.00
929.9878	2258.00
930.3622	2249.00
930.7364	2254.00
931.1106	2257.00
931.4846	2240.00
931.8586	2231.00
932.2324	2224.00
932.6061	2229.00
932.9798	2235.00
933.3533	2232.00
933.7266	2226.00
934.0999	2222.00
934.4731	2215.00
934.8462	2236.00
935.2191	2246.00
935.5920	2252.00
935.9647	2245.00
936.3374	2237.00
936.7099	2245.00
937.0823	2246.00
937.4546	2254.00
937.8268	2254.00
938.1989	2256.00
938.5708	2264.00
938.9427	2267.00
939.3145	2261.00
939.6861	2251.00
940.0577	2260.00
940.4291	2272.00
940.8004	2278.00
941.1716	2271.00
941.5427	2270.00
941.9137	2269.00
942.2846	2258.00
942.6554	2259.00
943.0261	2272.00
943.3966	2257.00
943.7671	2259.00
944.1374	2263.00
944.5076	2257.00
944.8778	2256.00
945.2478	2269.00
945.6177	2253.00
945.9875	2263.00
946.3572	2261.00
946.7267	2253.00
947.0962	2251.00
947.4656	2245.00
947.8348	2238.00
948.2040	2251.00
948.5730	2260.00
948.9419	2250.00
949.3107	2248.00
949.6794	2260.00
950.0480	2263.00
950.4165	2263.00
950.7849	2270.00
951.1532	2266.00
951.5213	2266.00
951.8894	2264.00
952.2573	2274.00
952.6251	2265.00
952.9929	2263.00
953.3605	2283.00
953.7280	2275.00
954.0954	2268.00
954.4627	2252.00
954.8299	2242.00
955.1969	2250.00
955.5639	2264.00
955.9307	2266.00
956.2975	2269.00
956.6641	2259.00
957.0306	2252.00
957.3971	2264.00
957.7634	2266.00
958.1296	2266.00
958.4956	2266.00
958.8616	2260.00
959.2275	2256.00
959.5933	2252.00
959.9589	2255.00
960.3244	2249.00
960.6899	2242.00
961.0552	2253.00
961.4204	2260.00
961.7855	2255.00
962.1505	2267.00
962.5154	2260.00
962.8802	2247.00
963.2449	2247.00
963.6094	2265.00
963.9739	2265.00
964.3382	2260.00
964.7025	2266.00
965.0666	2253.00
965.4306	2237.00
965.7945	2245.00
966.1583	2268.00
966.5220	2275.00
966.8856	2268.00
967.2490	2267.00
967.6124	2270.00
967.9757	2266.00
968.3388	2274.00
968.7018	2268.00
969.0648	2253.00
969.4276	2254.00
969.7903	2263.00
970.1529	2277.00
970.5154	2281.00
970.8778	2283.00
971.2400	2293.00
971.6022	2285.00
971.9642	2268.00
972.3262	2254.00
972.6880	2269.00
973.0497	2269.00
973.4114	2255.00
973.7729	2269.00
974.1343	2266.00
974.4956	2264.00
974.8567	2270.00
975.2178	2269.00
975.5788	2258.00
975.9396	2260.00
976.3004	2265.00
976.6610	2273.00
977.0215	2280.00
977.3820	2281.00
977.7423	2289.00
978.1025	2284.00
978.4626	2278.00
978.8225	2293.00
979.1824	2295.00
979.5422	2297.00
979.9018	2288.00
980.2614	2283.00
980.6208	2268.00
980.9801	2253.00
981.3394	2251.00
981.6985	2255.00
982.0575	2254.00
982.4164	2270.00
982.7751	2283.00
983.1338	2283.00
983.4924	2281.00
983.8508	2275.00
984.2092	2280.00
984.5674	2275.00
984.9255	2270.00
985.2836	2278.00
985.6415	2276.00
985.9993	2269.00
986.3570	2265.00
986.7145	2273.00
987.0720	2270.00
987.4294	2270.00
987.7866	2272.00
988.1438	2283.00
988.5008	2292.00
988.8577	2285.00
989.2146	2271.00
989.5713	2270.00
989.9279	2256.00
990.2844	2272.00
990.6407	2275.00
990.9970	2284.00
991.3532	2303.00
991.7092	2295.00
992.0652	2284.00
992.4210	2275.00
992.7768	2262.00
993.1324	2262.00
993.4879	2263.00
993.8433	2263.00
994.1986	2284.00
994.5538	2290.00
994.9088	2282.00
995.2638	2268.00
995.6187	2269.00
995.9734	2281.00
996.3280	2279.00
996.6826	2268.00
997.0370	2270.00
997.3913	2270.00
997.7455	2267.00
998.0996	2289.00
998.4536	2296.00
998.8075	2280.00
999.1612	2274.00
999.5149	2289.00
999.8684	2304.00
1000.2219	2306.00
1000.5752	2299.00
1000.9284	2281.00
1001.2815	2267.00
1001.6345	2270.00
1001.9874	2284.00
1002.3402	2291.00
1002.6929	2288.00
1003.0455	2303.00
1003.3979	2313.00
1003.7503	2311.00
1004.1025	2312.00
1004.4546	2317.00
1004.8067	2315.00
1005.1586	2318.00
1005.5104	2299.00
1005.8621	2291.00
1006.2136	2290.00
1006.5651	2289.00
1006.9165	2289.00
1007.2677	2280.00
1007.6189	2281.00
1007.9699	2278.00
1008.3209	2289.00
1008.6717	2294.00
1009.0224	2294.00
1009.3730	2301.00
1009.7235	2298.00
1010.0739	2303.00
1010.4242	2305.00
1010.7743	2294.00
1011.1244	2300.00
1011.4743	2303.00
1011.8242	2302.00
1012.1739	2309.00
1012.5235	2306.00
1012.8730	2318.00
1013.2224	2318.00
1013.5717	2309.00
1013.9209	2301.00
1014.2700	2321.00
1014.6190	2327.00
1014.9678	2319.00
1015.3166	2307.00
1015.6652	2290.00
1016.0138	2280.00
1016.3622	2278.00
1016.7105	2276.00
1017.0587	2280.00
1017.4068	2282.00
1017.7548	2271.00
1018.1027	2285.00
1018.4504	2290.00
1018.7981	2302.00
1019.1456	2313.00
1019.4931	2299.00
1019.8404	2291.00
1020.1876	2294.00
1020.5347	2301.00
1020.8817	2310.00
1021.2286	2306.00
1021.5754	2296.00
1021.9221	2294.00
1022.2687	2297.00
1022.6151	2301.00
1022.9615	2293.00
1023.3077	2293.00
1023.6539	2289.00
1023.9999	2294.00
1024.3458	2291.00
1024.6916	2290.00
1025.0373	2282.00
1025.3829	2295.00
1025.7284	2295.00
1026.0737	2298.00
1026.4190	2285.00
1026.7642	2288.00
1027.1092	2283.00
1027.4541	2291.00
1027.7990	2303.00
1028.1437	2298.00
1028.4883	2287.00
1028.8328	2288.00
1029.1772	2296.00
1029.5214	2296.00
1029.8656	2299.00
1030.2097	2316.00
1030.5536	2310.00
1030.8975	2300.00
1031.2412	2306.00
1031.5848	2299.00
1031.9283	2294.00
1032.2717	2286.00
1032.6150	2288.00
1032.9582	2290.00
1033.3013	2273.00
1033.6443	2283.00
1033.9871	2279.00
1034.3299	2269.00
1034.6725	2285.00
1035.0151	2307.00
1035.3575	2303.00
1035.6998	2303.00
1036.0420	2304.00
1036.3841	2307.00
1036.7261	2311.00
1037.0680	2311.00
1037.4098	2295.00
1037.7514	2292.00
1038.0930	2290.00
1038.4344	2288.00
1038.7758	2304.00
1039.1170	2306.00
1039.4581	2314.00
1039.7991	2309.00
1040.1400	2307.00
1040.4808	2300.00
1040.8215	2302.00
1041.1620	2300.00
1041.5025	2289.00
1041.8429	2283.00
1042.1831	2296.00
1042.5232	2313.00
1042.8633	2326.00
1043.2032	2324.00
1043.5430	2316.00
1043.8827	2302.00
1044.2223	2299.00
1044.5618	2300.00
1044.9011	2299.00
1045.2404	2297.00
1045.5795	2277.00
1045.9186	2270.00
1046.2575	2263.00
1046.5964	2288.00
1046.9351	2284.00
1047.2737	2305.00
1047.6122	2313.00
1047.9506	2316.00
1048.2889	2305.00
1048.6270	2293.00
1048.9651	2289.00
1049.3030	2275.00
1049.6409	2271.00
1049.9786	2273.00
1050.3163	2286.00
1050.6538	2286.00
1050.9912	2306.00
1051.3285	2307.00
1051.6657	2305.00
1052.0028	2299.00
1052.3397	2291.00
1052.6766	2283.00
1053.0133	2278.00
1053.3500	2276.00
1053.6865	2278.00
1054.0230	2291.00
1054.3593	2296.00
1054.6955	2297.00
1055.0316	2293.00
1055.3676	2281.00
1055.7035	2284.00
1056.0392	2294.00
1056.3749	2307.00
1056.7105	2305.00
1057.0459	2304.00
1057.3812	2307.00
1057.7165	2300.00
1058.0516	2302.00
1058.3866	2299.00
1058.7215	2288.00
1059.0563	2286.00
1059.3910	2294.00
1059.7255	2307.00
1060.0600	2295.00
1060.3944	2298.00
1060.7286	2306.00
1061.0627	2317.00
1061.3968	2327.00
1061.7307	2344.00
1062.0645	2344.00
1062.3982	2330.00
1062.7318	2324.00
1063.0653	2338.00
1063.3987	2339.00
1063.7319	2339.00
1064.0651	2328.00
1064.3981	2312.00
1064.7311	2299.00
1065.0639	2314.00
1065.3966	2311.00
1065.7292	2291.00
1066.0617	2295.00
1066.3941	2280.00
1066.7264	2264.00
1067.0586	2269.00
1067.3906	2281.00
1067.7226	2293.00
1068.0545	2299.00
1068.3862	2318.00
1068.7178	2338.00
1069.0493	2346.00
1069.3808	2340.00
1069.7121	2343.00
1070.0432	2331.00
1070.3743	2307.00
1070.7053	2294.00
1071.0362	2293.00
1071.3669	2302.00
1071.6976	2303.00
1072.0281	2303.00
1072.3586	2314.00
1072.6889	2308.00
1073.0191	2304.00
1073.3492	2312.00
1073.6792	2318.00
1074.0091	2313.00
1074.3388	2316.00
1074.6685	2327.00
1074.9981	2322.00
1075.3275	2321.00
1075.6569	2318.00
1075.9861	2320.00
1076.3152	2302.00
1076.6442	2290.00
1076.9731	2299.00
1077.3019	2302.00
1077.6306	2286.00
1077.9592	2295.00
1078.2877	2302.00
1078.6160	2303.00
1078.9443	2311.00
1079.2724	2306.00
1079.6004	2305.00
1079.9284	2310.00
1080.2562	2305.00
1080.5839	2307.00
1080.9115	2317.00
1081.2390	2322.00
1081.5663	2335.00
1081.8936	2343.00
1082.2208	2339.00
1082.5478	2344.00
1082.8747	2345.00
1083.2016	2343.00
1083.5283	2342.00
1083.8549	2339.00
1084.1814	2341.00
1084.5078	2331.00
1084.8341	2315.00
1085.1603	2306.00
1085.4863	2306.00
1085.8123	2319.00
1086.1382	2317.00
1086.4639	2327.00
1086.7895	2316.00
1087.1151	2310.00
1087.4405	2326.00
1087.7658	2346.00
1088.0910	2349.00
1088.4161	2363.00
1088.7410	2365.00
1089.0659	2367.00
1089.3907	2360.00
1089.7153	2339.00
1090.0399	2338.00
1090.3643	2334.00
1090.6886	2343.00
1091.0128	2346.00
1091.3369	2352.00
1091.6609	2353.00
1091.9848	2355.00
1092.3086	2347.00
1092.6323	2349.00
1092.9558	2345.00
1093.2793	2349.00
1093.6026	2349.00
1093.9259	2348.00
1094.2490	2343.00
1094.5720	2351.00
1094.8949	2370.00
1095.2177	2371.00
1095.5404	2372.00
1095.8630	2354.00
1096.1854	2332.00
1096.5078	2321.00
1096.8300	2323.00
1097.1522	2320.00
1097.4742	2338.00
1097.7961	2342.00
1098.1180	2347.00
1098.4397	2346.00
1098.7613	2349.00
1099.0828	2348.00
1099.4041	2365.00
1099.7254	2364.00
1100.0466	2387.00
